 Step          Temp          PotEng         KinEng         TotEng         Press     
       302   1             -2.4723368      1.47          -1.0023368      0.047964199  
       310   1.0772553     -2.4723368      1.5835653     -0.88877149     0.051749709  
       320   1.1654862     -2.4723368      1.7132648     -0.75907202     0.056073024  
       330   1.2452807     -2.4723368      1.8305626     -0.64177415     0.059982954  
       340   1.3174454     -2.4723368      1.9366447     -0.53569205     0.063519024  
       350   1.3827099     -2.4723368      2.0325835     -0.4397533      0.066716982  
       360   1.4417339     -2.4723368      2.1193488     -0.35298802     0.069609158  
       370   1.4951141     -2.4723368      2.1978177     -0.27451905     0.07222479   
       380   1.5433903     -2.4723368      2.2687837     -0.20355312     0.074590321  
       390   1.5870503     -2.4723368      2.332964      -0.13937281     0.076729665  
       400   1.6265357     -2.4723368      2.3910075     -0.081329286    0.078664449  
       410   1.6622456     -2.4723368      2.443501      -0.028835763    0.080414233  
       420   1.694541      -2.4723368      2.4909752      0.018638438    0.081996706  
       430   1.7237483     -2.4723368      2.53391        0.061573254    0.083427867  
       440   1.7501629     -2.4723368      2.5727395      0.10040273     0.084722183  
       450   1.7740518     -2.4723368      2.6078562      0.13551942     0.085892739  
       460   1.7956565     -2.4723368      2.6396151      0.16727832     0.086951369  
       470   1.8151954     -2.4723368      2.6683373      0.1960005      0.087908775  
       480   1.8328661     -2.4723368      2.6943131      0.22197632     0.088774636  
       490   1.8488471     -2.4723368      2.7178052      0.24546839     0.089557705  
       500   1.8633        -2.4723368      2.739051       0.2667142      0.090265898  
       510   1.876371      -2.4723368      2.7582653      0.28592853     0.090906376  
       520   1.8881921     -2.4723368      2.7756424      0.30330562     0.091485612  
       530   1.898883      -2.4723368      2.7913579      0.31902115     0.092009463  
       540   1.9085516     -2.4723368      2.8055708      0.333234       0.092483225  
       550   1.9172957     -2.4723368      2.8184246      0.34608784     0.092911686  
       560   1.9252037     -2.4723368      2.8300494      0.35771262     0.093299179  
       570   1.9323556     -2.4723368      2.8405627      0.36822587     0.093649621  
       580   1.9388236     -2.4723368      2.8500707      0.37773386     0.093966554  
       590   1.9446731     -2.4723368      2.8586695      0.38633272     0.094253182  
       600   1.9499634     -2.4723368      2.8664462      0.39410937     0.094512404  
       610   1.9547478     -2.4723368      2.8734792      0.40114244     0.09474684   
       620   1.9590747     -2.4723368      2.8798398      0.40750301     0.094958859  
       630   1.9629879     -2.4723368      2.8855922      0.41325541     0.095150605  
       640   1.9665269     -2.4723368      2.8907946      0.41845777     0.095324017  
       650   1.9697275     -2.4723368      2.8954995      0.42316269     0.095480848  
       660   1.9726221     -2.4723368      2.8997545      0.42741774     0.095622683  
       670   1.9752399     -2.4723368      2.9036027      0.43126592     0.095750956  
       680   1.9776074     -2.4723368      2.907083       0.43474616     0.095866964  
       690   1.9797486     -2.4723368      2.9102304      0.43789362     0.095971879  
       700   1.981685      -2.4723368      2.9130769      0.44074012     0.096066763  
       710   1.9834362     -2.4723368      2.9156512      0.44331445     0.096152574  
       720   1.98502       -2.4723368      2.9179794      0.44564263     0.096230179  
       730   1.9864524     -2.4723368      2.920085       0.44774819     0.096300365  
       740   1.9877478     -2.4723368      2.9219892      0.44965242     0.096363839  
       750   1.9889193     -2.4723368      2.9237114      0.45137458     0.096421244  
       760   1.9899788     -2.4723368      2.9252689      0.45293206     0.096473161  
       770   1.990937      -2.4723368      2.9266774      0.45434062     0.096520113  
       780   1.9918036     -2.4723368      2.9279513      0.4556145      0.096562575  
       790   1.9925873     -2.4723368      2.9291034      0.45676657     0.096600978  
       800   1.9932961     -2.4723368      2.9301453      0.45780849     0.096635708  
       810   1.9939371     -2.4723368      2.9310876      0.45875077     0.096667118  
       820   1.9945168     -2.4723368      2.9319398      0.45960296     0.096695524  
       830   1.9950411     -2.4723368      2.9327105      0.46037367     0.096721214  
       840   1.9955153     -2.4723368      2.9334075      0.46107068     0.096744448  
       850   1.9959441     -2.4723368      2.9340378      0.46170104     0.09676546   
       860   1.9963319     -2.4723368      2.9346079      0.46227113     0.096784463  
       870   1.9966827     -2.4723368      2.9351235      0.46278671     0.096801649  
       880   1.9969999     -2.4723368      2.9355898      0.46325299     0.096817192  
       890   1.9972867     -2.4723368      2.9360115      0.46367469     0.096831248  
       900   1.9975462     -2.4723368      2.9363929      0.46405606     0.09684396   
       910   1.9977808     -2.4723368      2.9367378      0.46440097     0.096855457  
       920   1.997993      -2.4723368      2.9370497      0.4647129      0.096865855  
       930   1.9981849     -2.4723368      2.9373318      0.464995       0.096875258  
       940   1.9983584     -2.4723368      2.9375869      0.46525013     0.096883763  
       950   1.9985154     -2.4723368      2.9378177      0.46548086     0.096891454  
       960   1.9986574     -2.4723368      2.9380263      0.46568953     0.09689841   
       970   1.9987857     -2.4723368      2.938215       0.46587825     0.0969047    
       980   1.9989018     -2.4723368      2.9383857      0.46604892     0.096910389  
       990   1.9990069     -2.4723368      2.9385401      0.46620328     0.096915534  
      1000   1.9991018     -2.4723368      2.9386797      0.46634287     0.096920188  
      1010   1.9991877     -2.4723368      2.9388059      0.46646912     0.096924396  
      1020   1.9992654     -2.4723368      2.9389201      0.4665833      0.096928202  
      1030   1.9993356     -2.4723368      2.9390233      0.46668656     0.096931644  
      1040   1.9993991     -2.4723368      2.9391167      0.46677994     0.096934757  
      1050   1.9994566     -2.4723368      2.9392012      0.4668644      0.096937572  
      1060   1.9995086     -2.4723368      2.9392776      0.46694078     0.096940118  
      1070   1.9995555     -2.4723368      2.9393466      0.46700985     0.09694242   
      1080   1.999598      -2.4723368      2.9394091      0.46707233     0.096944503  
      1090   1.9996365     -2.4723368      2.9394656      0.46712883     0.096946386  
      1100   1.9996712     -2.4723368      2.9395167      0.46717992     0.096948089  
      1110   1.9997027     -2.4723368      2.9395629      0.46722613     0.09694963   
      1120   1.9997311     -2.4723368      2.9396047      0.46726792     0.096951023  
      1130   1.9997568     -2.4723368      2.9396425      0.46730572     0.096952283  
      1140   1.9997801     -2.4723368      2.9396767      0.4673399      0.096953422  
      1150   1.9998011     -2.4723368      2.9397076      0.46737082     0.096954452  
      1160   1.9998201     -2.4723368      2.9397356      0.46739877     0.096955384  
      1170   1.9998373     -2.4723368      2.9397609      0.46742406     0.096956227  
      1180   1.9998529     -2.4723368      2.9397837      0.46744693     0.096956989  
      1190   1.9998669     -2.4723368      2.9398044      0.46746761     0.096957679  
      1200   1.9998797     -2.4723368      2.9398231      0.46748631     0.096958302  
      1210   1.9998912     -2.4723368      2.93984        0.46750322     0.096958866  
      1220   1.9999016     -2.4723368      2.9398553      0.46751852     0.096959376  
      1230   1.999911      -2.4723368      2.9398691      0.46753235     0.096959837  
      1240   1.9999195     -2.4723368      2.9398817      0.46754487     0.096960254  
      1250   1.9999272     -2.4723368      2.939893       0.46755618     0.096960631  
      1260   1.9999342     -2.4723368      2.9399032      0.46756642     0.096960972  
      1270   1.9999405     -2.4723368      2.9399125      0.46757567     0.096961281  
      1280   1.9999461     -2.4723368      2.9399208      0.46758404     0.09696156   
      1290   1.9999513     -2.4723368      2.9399284      0.46759161     0.096961812  
      1300   1.999956      -2.4723368      2.9399352      0.46759846     0.09696204   
      1310   1.9999602     -2.4723368      2.9399414      0.46760465     0.096962247  
      1320   1.999964      -2.4723368      2.939947       0.46761025     0.096962433  
      1330   1.9999674     -2.4723368      2.9399521      0.46761531     0.096962602  
      1340   1.9999705     -2.4723368      2.9399567      0.46761989     0.096962755  
      1350   1.9999734     -2.4723368      2.9399608      0.46762403     0.096962893  
      1360   1.9999759     -2.4723368      2.9399646      0.46762778     0.096963018  
      1370   1.9999782     -2.4723368      2.939968       0.46763117     0.096963131  
      1380   1.9999803     -2.4723368      2.939971       0.46763423     0.096963233  
      1390   1.9999822     -2.4723368      2.9399738      0.467637       0.096963325  
      1400   1.9999839     -2.4723368      2.9399763      0.46763951     0.096963409  
      1410   1.9999854     -2.4723368      2.9399786      0.46764177     0.096963484  
      1420   1.9999868     -2.4723368      2.9399806      0.46764382     0.096963553  
      1430   1.9999881     -2.4723368      2.9399825      0.46764567     0.096963614  
      1440   1.9999892     -2.4723368      2.9399841      0.46764735     0.09696367   
      1450   1.9999902     -2.4723368      2.9399857      0.46764887     0.096963721  
      1460   1.9999912     -2.4723368      2.939987       0.46765024     0.096963766  
      1470   1.999992      -2.4723368      2.9399883      0.46765148     0.096963808  
      1480   1.9999928     -2.4723368      2.9399894      0.4676526      0.096963845  
      1490   1.9999935     -2.4723368      2.9399904      0.46765361     0.096963879  
      1500   1.9999941     -2.4723368      2.9399913      0.46765453     0.09696391   
      1510   1.9999947     -2.4723368      2.9399922      0.46765536     0.096963937  
      1520   1.9999952     -2.4723368      2.9399929      0.46765611     0.096963962  
      1530   1.9999956     -2.4723368      2.9399936      0.46765679     0.096963985  
      1540   1.9999961     -2.4723368      2.9399942      0.4676574      0.096964005  
      1550   1.9999964     -2.4723368      2.9399948      0.46765796     0.096964024  
      1560   1.9999968     -2.4723368      2.9399953      0.46765846     0.09696404   
      1570   1.9999971     -2.4723368      2.9399957      0.46765891     0.096964056  
      1580   1.9999974     -2.4723368      2.9399961      0.46765932     0.096964069  
      1590   1.9999976     -2.4723368      2.9399965      0.46765969     0.096964082  
      1600   1.9999978     -2.4723368      2.9399968      0.46766003     0.096964093  
      1610   1.999998      -2.4723368      2.9399971      0.46766033     0.096964103  
      1620   1.9999982     -2.4723368      2.9399974      0.46766061     0.096964112  
      1630   1.9999984     -2.4723368      2.9399977      0.46766086     0.09696412   
      1640   1.9999986     -2.4723368      2.9399979      0.46766108     0.096964128  
      1650   1.9999987     -2.4723368      2.9399981      0.46766128     0.096964135  
      1660   1.9999988     -2.4723368      2.9399983      0.46766147     0.096964141  
      1670   1.9999989     -2.4723368      2.9399984      0.46766163     0.096964146  
      1680   1.999999      -2.4723368      2.9399986      0.46766178     0.096964151  
      1690   1.9999991     -2.4723368      2.9399987      0.46766192     0.096964156  
      1700   1.9999992     -2.4723368      2.9399988      0.46766204     0.09696416   
      1710   1.9999993     -2.4723368      2.9399989      0.46766215     0.096964164  
      1720   1.9999994     -2.4723368      2.939999       0.46766226     0.096964167  
      1730   1.9999994     -2.4723368      2.9399991      0.46766235     0.09696417   
      1740   1.9999995     -2.4723368      2.9399992      0.46766243     0.096964173  
      1750   1.9999995     -2.4723368      2.9399993      0.4676625      0.096964175  
      1760   1.9999996     -2.4723368      2.9399994      0.46766257     0.096964177  
      1770   1.9999996     -2.4723368      2.9399994      0.46766263     0.09696418   
      1780   1.9999996     -2.4723368      2.9399995      0.46766269     0.096964181  
      1790   1.9999997     -2.4723368      2.9399995      0.46766274     0.096964183  
      1800   1.9999997     -2.4723368      2.9399996      0.46766278     0.096964185  
      1810   1.9999997     -2.4723368      2.9399996      0.46766282     0.096964186  
      1820   1.9999998     -2.4723368      2.9399997      0.46766286     0.096964187  
      1830   1.9999998     -2.4723368      2.9399997      0.46766289     0.096964188  
      1840   1.9999998     -2.4723368      2.9399997      0.46766292     0.096964189  
      1850   1.9999998     -2.4723368      2.9399997      0.46766295     0.09696419   
      1860   1.9999998     -2.4723368      2.9399998      0.46766297     0.096964191  
      1870   1.9999999     -2.4723368      2.9399998      0.467663       0.096964192  
      1880   1.9999999     -2.4723368      2.9399998      0.46766302     0.096964192  
      1890   1.9999999     -2.4723368      2.9399998      0.46766303     0.096964193  
      1900   1.9999999     -2.4723368      2.9399998      0.46766305     0.096964193  
      1910   1.9999999     -2.4723368      2.9399999      0.46766307     0.096964194  
      1920   1.9999999     -2.4723368      2.9399999      0.46766308     0.096964194  
      1930   1.9999999     -2.4723368      2.9399999      0.46766309     0.096964195  
      1940   1.9999999     -2.4723368      2.9399999      0.4676631      0.096964195  
      1950   1.9999999     -2.4723368      2.9399999      0.46766311     0.096964196  
      1960   1.9999999     -2.4723368      2.9399999      0.46766312     0.096964196  
      1970   1.9999999     -2.4723368      2.9399999      0.46766313     0.096964196  
      1980   2             -2.4723368      2.9399999      0.46766314     0.096964196  
      1990   2             -2.4723368      2.9399999      0.46766314     0.096964197  
      2000   2             -2.4723368      2.9399999      0.46766315     0.096964197  
      2010   2             -2.4723368      2.9399999      0.46766315     0.096964197  
      2020   2             -2.4723368      2.94           0.46766316     0.096964197  
      2030   2             -2.4723368      2.94           0.46766316     0.096964197  
      2040   2             -2.4723368      2.94           0.46766317     0.096964197  
      2050   2             -2.4723368      2.94           0.46766317     0.096964198  
      2060   2             -2.4723368      2.94           0.46766317     0.096964198  
      2070   2             -2.4723368      2.94           0.46766318     0.096964198  
      2080   2             -2.4723368      2.94           0.46766318     0.096964198  
      2090   2             -2.4723368      2.94           0.46766318     0.096964198  
      2100   2             -2.4723368      2.94           0.46766319     0.096964198  
      2110   2             -2.4723368      2.94           0.46766319     0.096964198  
      2120   2             -2.4723368      2.94           0.46766319     0.096964198  
      2130   2             -2.4723368      2.94           0.46766319     0.096964198  
      2140   2             -2.4723368      2.94           0.46766319     0.096964198  
      2150   2             -2.4723368      2.94           0.46766319     0.096964198  
      2160   2             -2.4723368      2.94           0.46766319     0.096964198  
      2170   2             -2.4723368      2.94           0.4676632      0.096964198  
      2180   2             -2.4723368      2.94           0.4676632      0.096964198  
      2190   2             -2.4723368      2.94           0.4676632      0.096964198  
      2200   2             -2.4723368      2.94           0.4676632      0.096964198  
      2210   2             -2.4723368      2.94           0.4676632      0.096964198  
      2220   2             -2.4723368      2.94           0.4676632      0.096964198  
      2230   2             -2.4723368      2.94           0.4676632      0.096964198  
      2240   2             -2.4723368      2.94           0.4676632      0.096964199  
      2250   2             -2.4723368      2.94           0.4676632      0.096964199  
      2260   2             -2.4723368      2.94           0.4676632      0.096964199  
      2270   2             -2.4723368      2.94           0.4676632      0.096964199  
      2280   2             -2.4723368      2.94           0.4676632      0.096964199  
      2290   2             -2.4723368      2.94           0.4676632      0.096964199  
      2300   2             -2.4723368      2.94           0.4676632      0.096964199  
      2310   2             -2.4723368      2.94           0.4676632      0.096964199  
      2320   2             -2.4723368      2.94           0.4676632      0.096964199  
      2330   2             -2.4723368      2.94           0.4676632      0.096964199  
      2340   2             -2.4723368      2.94           0.4676632      0.096964199  
      2350   2             -2.4723368      2.94           0.4676632      0.096964199  
      2360   2             -2.4723368      2.94           0.4676632      0.096964199  
      2370   2             -2.4723368      2.94           0.4676632      0.096964199  
      2380   2             -2.4723368      2.94           0.4676632      0.096964199  
      2390   2             -2.4723368      2.94           0.4676632      0.096964199  
      2400   2             -2.4723368      2.94           0.4676632      0.096964199  
      2410   2             -2.4723368      2.94           0.46766321     0.096964199  
      2420   2             -2.4723368      2.94           0.46766321     0.096964199  
      2430   2             -2.4723368      2.94           0.46766321     0.096964199  
      2440   2             -2.4723368      2.94           0.46766321     0.096964199  
      2450   2             -2.4723368      2.94           0.46766321     0.096964199  
      2460   2             -2.4723368      2.94           0.46766321     0.096964199  
      2470   2             -2.4723368      2.94           0.46766321     0.096964199  
      2480   2             -2.4723368      2.94           0.46766321     0.096964199  
      2490   2             -2.4723368      2.94           0.46766321     0.096964199  
      2500   2             -2.4723368      2.94           0.46766321     0.096964199  
      2510   2             -2.4723368      2.94           0.46766321     0.096964199  
      2520   2             -2.4723368      2.94           0.46766321     0.096964199  
      2530   2             -2.4723368      2.94           0.46766321     0.096964199  
      2540   2             -2.4723368      2.94           0.46766321     0.096964199  
      2550   2             -2.4723368      2.94           0.46766321     0.096964199  
      2560   2             -2.4723368      2.94           0.46766321     0.096964199  
      2570   2             -2.4723368      2.94           0.46766321     0.096964199  
